datetime,open,high,low,close,volume
2025-04-01,148.88,150.03,147.38,149.10001,239988
2025-03-31,146.58,149.09,146.10001,148.38,372500
2025-03-28,149.28999,150.0,145.75999,146.92999,239800
2025-03-27,148.28,149.89,147.03,149.35001,312700
2025-03-26,147.05,148.7,146.3,148.56,630400
2025-03-25,148.49001,149.23,145.92999,147.21001,325200
2025-03-24,145.75,148.17999,144.91,147.99001,463800
2025-03-21,144.0,145.46001,142.36,144.82001,601900
2025-03-20,146.13,147.42,143.73,145.2,332800
2025-03-19,146.34,147.46001,145.47,146.98,279600
2025-03-18,147.39,147.53,145.78,146.3,219900
2025-03-17,146.50999,148.0,145.86,147.84,225200
2025-03-14,145.23,146.89,144.53999,146.66,223600
2025-03-13,146.41,147.2,143.75999,144.75999,238400
2025-03-12,148.24001,148.24001,145.56,146.03,299700
2025-03-11,150.34,150.56,147.27,147.89,304000
2025-03-10,152.07001,154.0,150.24001,150.57001,391100
2025-03-07,150.50999,153.36,149.17999,152.78,480200
2025-03-06,147.56,151.5,147.06,151.14999,471700
2025-03-05,146.05,148.85001,146.05,148.44,445100
2025-03-04,145.53999,147.95,145.14,145.94,490100
2025-03-03,146.97,148.84,145.69,146.59,394100
2025-02-28,146.16,146.95,144.63,146.75,348700
2025-02-27,146.23,147.17999,145.36,145.63,262800
2025-02-26,146.64999,149.17999,146.62,146.64,735600
2025-02-25,145.88,148.33,145.72,147.71001,336700
2025-02-24,146.17999,147.28999,144.36,145.61,353300
2025-02-21,147.03,147.39,145.2,146.34,451900
2025-02-20,146.97,147.42,145.92,146.67999,283100
2025-02-19,146.14,147.49001,145.61,147.03999,331000
2025-02-18,144.78999,147.28999,143.89999,146.89999,489600
2025-02-14,143.69,145.31,142.72,144.78999,512800
2025-02-13,142.75,143.78,141.46001,142.77,665900
2025-02-12,140.97,143.49001,139.92999,141.7,423500
2025-02-11,142.27,143.07001,140.25999,142.28999,377300
2025-02-10,144.25999,144.60001,140.89999,143.28,621900
2025-02-07,157.62,157.89999,142.03999,143.17999,1221500
2025-02-06,159.84,159.84,155.37,156.45,446600
2025-02-05,158.28,159.66,157.78,158.32001,262600
2025-02-04,156.09,158.46001,156.09,157.7,302400
2025-02-03,154.58,156.75,154.14,155.98,364600
2025-01-31,157.89999,159.39,156.75999,157.14999,834100
2025-01-30,157.82001,158.67999,156.58,158.13,274200
2025-01-29,158.78,158.82001,156.62,157.11,265800
2025-01-28,157.57001,160.35001,157.57001,158.42,204300
2025-01-27,158.25,158.92,156.64999,158.46001,317000
2025-01-24,159.64999,160.47,157.22,158.3,329600
2025-01-23,158.46001,159.81,157.73,159.62,149800
2025-01-22,159.34,160.75,158.34,159.07001,280000
2025-01-21,156.72,160.25999,156.72,159.83,270900
2025-01-17,156.97,157.95,155.67999,156.09,231900
2025-01-16,155.89,157.17,155.31,156.41,346300
2025-01-15,156.12,156.92,154.17,155.56,206100
2025-01-14,154.81,155.45,153.48,154.61,196900
2025-01-13,152.92999,154.7,152.92999,153.89,349300
2025-01-10,152.72,154.3,152.58,153.45,350800
2025-01-08,152.89,154.25999,152.09,154.14999,228600
2025-01-07,155.92,156.06,152.60001,153.42999,361200
2025-01-06,154.0,154.64,151.44,152.92,369000
2025-01-03,154.03999,155.72,152.87,155.5,250700
2025-01-02,157.64999,158.11,153.45,154.16,239400
2024-12-31,157.28,158.25,156.17999,157.10001,317100
2024-12-30,157.0,157.49001,155.0,156.73,221700
2024-12-27,157.82001,159.58,157.61,158.14999,145000
2024-12-26,158.42,159.63,158.42,158.85001,164500
2024-12-24,158.78,159.42,157.92,159.35001,100500
2024-12-23,157.17,158.89999,156.96001,158.52,194900
2024-12-20,158.72,159.78,157.47,158.17999,730200
2024-12-19,158.50999,161.57001,158.23,158.87,404700
2024-12-18,163.69,164.42,157.91,158.21001,468600
2024-12-17,166.89999,166.91,162.84,163.09,511900
2024-12-16,170.14,170.92999,167.59,167.63,236100
2024-12-13,170.91,171.0,169.82001,170.2,153200
2024-12-12,171.67,172.60001,170.78,171.64,178300
2024-12-11,171.88,174.10001,171.75,172.31,418600
2024-12-10,170.72,171.37,168.19,170.91,287000
2024-12-09,171.56,173.47,170.23,170.78999,301700
2024-12-06,171.60001,172.64999,170.85001,171.14999,209200
2024-12-05,172.00999,172.44,170.53,171.10001,245000
2024-12-04,171.89,172.89,171.03,172.59,173400
2024-12-03,173.45,173.45,171.09,172.39999,160100
2024-12-02,172.98,173.11,170.84,172.75999,170900
2024-11-29,172.59,173.49001,172.09,172.96001,117300
2024-11-27,172.67,173.88,171.52,171.73,167200
2024-11-26,172.86,172.86,171.16,172.03999,140300
2024-11-25,172.05,174.02,171.74001,172.5,270100
2024-11-22,170.17999,172.07001,170.17999,171.50999,241600
2024-11-21,168.69,170.23,167.74001,169.88,205100
2024-11-20,167.0,168.94,165.64999,168.73,221800
2024-11-19,166.42,167.67,166.2,166.89999,287600
2024-11-18,166.39,167.82001,164.33,166.69,384400
2024-11-15,172.97,173.75999,166.17,166.49001,620500
2024-11-14,175.14999,175.78999,173.91,174.10001,198200
2024-11-13,175.5,176.39,175.05,175.5,168400
2024-11-12,176.64999,177.24001,174.95,175.7,179800
2024-11-11,176.32001,178.03,175.89999,176.14999,189100
2024-11-08,174.7,177.84,174.49001,175.75999,309200
2024-11-07,174.2,175.46001,173.53999,174.71001,412300
2024-11-06,175.14999,175.14999,172.14,173.16,264100
2024-11-05,167.74001,170.36,167.74001,170.31,206200
2024-11-04,169.63,170.57001,168.17999,168.25999,191800
2024-11-01,168.10001,170.99001,167.62,169.41,316300
2024-10-31,169.09,170.28,167.86,167.91,329900
2024-10-30,168.35001,170.2,168.12,169.03,290300
2024-10-29,169.03,169.49001,167.64,168.7,338100
2024-10-28,169.89999,171.41,168.75999,169.10001,350000
2024-10-25,168.92,169.85001,164.61,168.91,518900
2024-10-24,168.32001,168.33,166.14999,166.55,547300
2024-10-23,166.50999,167.98,166.16,167.64999,318100
2024-10-22,165.72,166.37,164.81,165.81,228500
2024-10-21,168.47,168.49001,166.3,166.33,217900
2024-10-18,169.10001,169.10001,167.78,168.63,171500
2024-10-17,166.98,168.32001,166.52,167.89,238200
2024-10-16,168.7,169.2,165.92,166.03999,330000
2024-10-15,167.32001,169.66,166.49001,168.67999,397300
2024-10-14,164.99001,167.75999,163.46001,167.19,469700
2024-10-11,160.94,161.92,160.35001,161.55,194400
2024-10-10,158.05,159.38,158.05,159.22,168500
2024-10-09,158.35001,160.05,158.12,159.7,152600
2024-10-08,158.28,159.02,157.10001,158.67,205900
2024-10-07,159.39,159.64,158.00999,158.69,223300
2024-10-04,159.94,161.47,159.33,160.58,350500
2024-10-03,157.99001,160.46001,156.64,158.94,367000
2024-10-02,159.86,160.11,157.96001,158.75,186900
2024-10-01,160.53999,160.53999,159.05,159.97,192200
2024-09-30,159.28999,160.42,158.92999,160.19,289800
2024-09-27,158.67999,161.55,158.25999,159.89,354300
2024-09-26,157.94,159.06,157.7,158.38,371600
2024-09-25,157.3,157.87,155.87,157.14,284100
2024-09-24,156.17999,157.08,156.03,156.63,246200
2024-09-23,156.17,156.91,154.74001,155.96001,315800
2024-09-20,156.31,156.31,154.48,155.91,663300
2024-09-19,155.02,158.81,155.02,156.89999,412400
2024-09-18,153.75999,155.49001,152.71001,153.07001,214200
2024-09-17,154.0,155.57001,151.87,153.03,259900
2024-09-16,153.03999,153.17,152.07001,152.99001,182900
2024-09-13,152.19,153.00999,151.89999,152.28,138600
2024-09-12,150.89,152.00999,149.97,151.96001,200400
2024-09-11,150.78999,150.88,148.63,150.84,178000
2024-09-10,151.87,152.78999,151.44,151.50999,158100
2024-09-09,152.57001,153.06,151.44,151.91,241500
2024-09-06,150.38,153.12,150.38,152.38,319100
2024-09-05,151.08,151.75999,149.95,150.72,200600
2024-09-04,149.60001,150.89999,149.60001,150.73,175800
2024-09-03,152.11,152.38,149.73,150.03999,362400
2024-08-30,152.2,153.44,151.64,153.19,178500
2024-08-29,152.55,152.91,151.21001,152.28,187100
2024-08-28,150.92999,151.97,150.92999,151.53999,249000
2024-08-27,150.00999,151.53999,149.84,151.2,208300
2024-08-26,150.67999,152.67,150.14,150.16,235500
2024-08-23,149.66,150.53,149.44,150.44,221400
2024-08-22,149.57001,150.39999,148.67,148.99001,200400
2024-08-21,148.17,149.57001,147.46001,149.33,267300
2024-08-20,146.98,148.31,146.98,148.11,387200
2024-08-19,146.32001,147.73,145.92,146.97,191200
2024-08-16,146.11,146.84,145.61,146.72,250600
2024-08-15,145.0,147.34,145.0,147.00999,277500
2024-08-14,144.13,144.81,143.49001,143.89999,115700
2024-08-13,143.50999,145.3,143.10001,144.37,212000
2024-08-12,143.97,144.17999,142.77,143.28999,221100
2024-08-09,145.41,145.41,143.47,143.95,263200
2024-08-08,144.46001,146.16,144.46001,145.56,268600
2024-08-07,146.00999,147.25999,143.47,143.60001,353600
2024-08-06,141.33,146.09,141.11,144.92999,476000
2024-08-05,143.42999,143.42999,139.48,140.67999,448500
2024-08-02,146.58,147.0,143.75,145.69,213500
2024-08-01,146.88,149.53999,145.42999,147.03,335300
2024-07-31,146.5,148.85001,145.41,146.98,280600
2024-07-30,147.38,147.89999,145.41,145.75,411000
2024-07-29,146.58,148.35001,145.17,147.8,390900
2024-07-26,143.13,151.28999,142.35001,146.66,562800
2024-07-25,142.83,144.05,141.22,141.49001,558100
2024-07-24,146.07001,146.63,143.89999,144.14,250600
2024-07-23,147.87,148.50999,145.67,146.03999,234500
2024-07-22,145.99001,147.56,145.25,147.19,235700
2024-07-19,146.59,146.59,144.66,145.94,251200
2024-07-18,144.61,147.25,144.60001,146.28,434200
2024-07-17,144.34,145.77,144.34,144.86,242300
2024-07-16,143.85001,145.3,143.85001,144.56,178800
2024-07-15,144.75999,145.69,143.14,143.42999,319900
2024-07-12,143.41,145.49001,143.41,144.59,263900
2024-07-11,141.2,143.3,140.75,142.09,244500
2024-07-10,140.75,141.63,140.57001,141.28999,142000
2024-07-09,140.86,141.27,139.75,140.03999,238400
2024-07-08,141.64999,142.5,141.5,141.50999,249300
2024-07-05,140.99001,141.44,139.73,140.89999,207000
2024-07-03,140.88,141.39999,140.57001,141.22,143300
2024-07-02,138.48,140.5,137.75999,140.39999,259400
2024-07-01,141.38,141.48,138.39,138.53999,306400
2024-06-28,143.78,144.32001,140.09,140.81,435100
2024-06-27,143.87,143.88,142.27,143.87,377300
2024-06-26,144.25,144.78999,142.96001,143.71001,192400
2024-06-25,146.78999,146.8,144.5,144.86,194500
2024-06-24,147.22,148.23,146.67,146.72,182900
2024-06-21,145.87,147.14,145.31,146.85001,444100
2024-06-20,146.66,147.53,145.67,145.81,199900
2024-06-18,146.48,147.69,146.47,146.69,219900
2024-06-17,144.87,146.67999,144.57001,146.33,303800
2024-06-14,145.09,145.38,143.67999,144.75,141500
2024-06-13,145.89,146.53,145.02,145.83,232400
2024-06-12,146.24001,146.31,144.07001,145.83,221300
2024-06-11,144.91,145.74001,144.35001,145.5,147700
2024-06-10,144.83,145.81,143.99001,145.59,125800
2024-06-07,145.77,146.33,145.45,145.55,179100
2024-06-06,148.00999,148.00999,145.39999,145.96001,197600
2024-06-05,147.72,148.2,147.08,147.92,229200
2024-06-04,147.64999,148.39,146.7,148.19,287900
2024-06-03,148.5,148.5,146.28,148.16,266200
2024-05-31,146.09,147.83,145.92,147.69,358900
2024-05-30,145.13,146.98,145.0,146.14,328100
2024-05-29,145.64999,146.7,144.50999,144.84,229700
2024-05-28,147.62,147.78,145.82001,146.71001,318400
2024-05-24,148.48,148.83,147.36,148.09,162300
2024-05-23,148.66,148.95,147.56,147.72,171700
2024-05-22,148.07001,148.83,147.47,148.78999,283300
2024-05-21,147.94,148.67999,147.09,148.59,280400
2024-05-20,147.59,148.41,147.03999,148.17,163400
2024-05-17,147.85001,148.17,147.13,147.67,169500
2024-05-16,147.37,147.89999,146.42999,147.53999,235500
2024-05-15,147.96001,148.34,146.77,147.28,211100
2024-05-14,148.3,148.31,147.47,147.89999,137600
2024-05-13,148.53,149.48,146.86,147.87,167500
2024-05-10,148.95,149.0,148.09,148.49001,186300
2024-05-09,151.0,151.73,148.63,149.08,299100
2024-05-08,149.72,150.87,149.48,150.78999,223500
2024-05-07,148.32001,150.38,148.32001,149.72,392900
2024-05-06,147.75999,149.08,147.16,149.03999,260200
2024-05-03,147.11,147.13,144.84,146.81,303300
2024-05-02,145.75999,146.73,145.28999,145.92,356500
2024-05-01,144.99001,147.21001,144.58,145.38,359600
2024-04-30,145.74001,146.10001,144.06,144.38,585100
2024-04-29,144.89999,148.02,144.37,146.38,676700
2024-04-26,142.0,148.50999,141.89999,143.33,489500
2024-04-25,139.84,141.25,138.92,140.17999,694400
2024-04-24,139.95,140.89999,139.64,140.00999,559200
2024-04-23,139.77,141.16,139.52,140.14999,417200
2024-04-22,139.55,141.14999,139.25,140.32001,298800
2024-04-19,139.06,139.92,138.77,139.34,276600
2024-04-18,138.39,139.44,138.22,139.11,246600
2024-04-17,138.88,139.48,138.35001,138.39999,565400
2024-04-16,137.78999,139.39,137.36,138.59,281700
2024-04-15,138.61,139.81,137.83,138.2,319600
2024-04-12,138.17,138.95,135.96001,137.2,299200
2024-04-11,139.25999,140.03999,138.45,139.13,265300
2024-04-10,138.98,140.22,138.45,139.39999,200700
2024-04-09,140.42,141.10001,139.36,140.31,242600
2024-04-08,141.67,142.38,140.39,140.50999,312500
2024-04-05,141.38,142.75999,140.95,141.73,288300
2024-04-04,141.83,142.75,140.97,141.75,403600
2024-04-03,140.67,141.19,139.87,140.88,258700
2024-04-02,141.84,141.84,140.39,140.63,202600
